Time,Angle1 [deg],Angle2 [deg],Angle1 vel [deg/s],Angle2 vel [deg/s],Angle1 acc [deg/s^2],Angle2 acc [deg/s^2],Endpoint pos x [m],Endpoint pos y [m],Endpoint vel x [m/s],Endpoint vel y [m/s],Delivery pos x [m],Delivery pos y [m]
0,1.5708,-3.14159,-0.00407975,0.0979196,-0.135992,3.26399,0,0.128,0.0925666,0,0,0,
0.03,1.57067,-3.13866,-0.00696194,0.19495,-0.0960729,3.23436,0.00264628,0.128004,0.184144,0.00049747,0,0,
0.06,1.57047,-3.13281,-0.00966675,0.290186,-0.0901605,3.17451,0.00794746,0.128034,0.274002,0.00222941,0,0,
0.09,1.57018,-3.1241,-0.0134992,0.385452,-0.127747,3.17554,0.0158574,0.128134,0.364003,0.00589821,0,0,
0.12,1.56977,-3.11254,-0.0199705,0.48036,-0.215711,3.16361,0.0274398,0.128369,0.453925,0.0121065,0,0,
0.15,1.56917,-3.09813,-0.0288937,0.575005,-0.29744,3.15483,0.0410546,0.128821,0.543754,0.0214223,0,0,
0.18,1.5683,-3.08088,-0.0415844,0.669508,-0.423026,3.1501,0.0573613,0.12959,0.63366,0.0342365,0,0,
0.21,1.56706,-3.06079,-0.0597972,0.764127,-0.607093,3.15397,0.0763603,0.130782,0.723968,0.0507309,0,0,
0.24,1.56526,-3.03787,-0.0867813,0.858471,-0.89947,3.14479,0.0980617,0.132512,0.814575,0.0705997,0,0,
0.27,1.56266,-3.01211,-0.126707,0.952944,-1.33085,3.14912,0.122472,0.134876,0.906271,0.0929099,0,0,
0.3,1.55886,-2.98353,-0.189682,1.04722,-2.09918,3.14238,0.149623,0.137942,1.00006,0.114955,0,0,
0.33,1.55317,-2.95211,-0.272561,1.1415,-2.76262,3.14276,0.179577,0.141681,1.09582,0.13455,0,0,
0.36,1.54499,-2.91786,-0.283584,1.14536,-0.367423,0.12884,0.212393,0.145996,1.09702,0.151473,0,0,
0.39,1.53648,-2.8835,-0.293651,1.14825,-0.335586,0.0963352,0.245238,0.150809,1.09673,0.16751,0,0,
0.42,1.52767,-2.84906,-0.302976,1.15063,-0.310827,0.0792005,0.278068,0.156094,1.09542,0.182729,0,0,
0.45,1.51858,-2.81454,-0.309956,1.14834,-0.232656,-0.0764277,0.31085,0.161825,1.08908,0.196606,0,0,
0.48,1.50929,-2.78009,-0.316419,1.14512,-0.215461,-0.107383,0.343437,0.167963,1.08148,0.209426,0,0,
0.51,1.49979,-2.74573,-0.322449,1.14089,-0.200976,-0.140716,0.37579,0.174474,1.07261,0.221121,0,0,
0.54,1.49012,-2.71151,-0.32803,1.1356,-0.18605,-0.176435,0.407872,0.181326,1.06244,0.231646,0,0,
0.57,1.48028,-2.67744,-0.33315,1.12919,-0.170673,-0.213543,0.439645,0.188482,1.051,0.240963,0,0,
0.6,1.47028,-2.64356,-0.337841,1.1216,-0.156351,-0.253066,0.47107,0.195907,1.03828,0.249009,0,0,
0.63,1.46015,-2.60991,-0.342108,1.11272,-0.14223,-0.29605,0.50211,0.203561,1.02425,0.255709,0,0,
0.66,1.44989,-2.57653,-0.34591,1.10253,-0.126755,-0.339816,0.532727,0.211405,1.00895,0.261045,0,0,
0.69,1.43951,-2.54346,-0.349216,1.09103,-0.110187,-0.383311,0.562883,0.219397,0.992438,0.265013,0,0,
0.72,1.42903,-2.51073,-0.352022,1.07877,-0.0935271,-0.408492,0.592542,0.227497,0.975238,0.267846,0,0,
0.75,1.41847,-2.47836,-0.354317,1.06535,-0.0764962,-0.447277,0.621684,0.23567,0.957054,0.269395,0,0,
0.78,1.40784,-2.4464,-0.356092,1.05084,-0.0591762,-0.483972,0.65028,0.243878,0.937992,0.269704,0,0,
0.81,1.39716,-2.41488,-0.357345,1.03528,-0.0417821,-0.518358,0.678305,0.252084,0.91816,0.268825,0,0,
0.84,1.38644,-2.38382,-0.35808,1.01877,-0.0244854,-0.550415,0.705736,0.260253,0.897664,0.266818,0,0,
0.87,1.3757,-2.35326,-0.358302,1.00136,-0.00741291,-0.580273,0.732553,0.268351,0.876601,0.263747,0,0,
0.9,1.36495,-2.32321,-0.358022,0.983119,0.00934725,-0.608152,0.75874,0.276348,0.85506,0.259674,0,0,
0.93,1.35421,-2.29372,-0.35725,0.96409,0.0257372,-0.634308,0.784283,0.284212,0.83312,0.254663,0,0,
0.96,1.34349,-2.2648,-0.355938,0.944097,0.04374,-0.666441,0.809171,0.291917,0.810665,0.248697,0,0,
0.99,1.33281,-2.23647,-0.354114,0.923033,0.0607742,-0.702113,0.833387,0.299435,0.78766,0.241732,0,0,
1.02,1.32219,-2.20878,-0.351757,0.901057,0.0785789,-0.732557,0.856918,0.306736,0.764253,0.233918,0,0,
1.05,1.31163,-2.18175,-0.348732,0.877734,0.10085,-0.777431,0.879749,0.313794,0.740117,0.225156,0,0,
1.08,1.30117,-2.15542,-0.344687,0.852936,0.134834,-0.826595,0.901861,0.320582,0.715089,0.215725,0,0,
1.11,1.29083,-2.12983,-0.339428,0.826579,0.175294,-0.878567,0.923226,0.327081,0.689077,0.205818,0,0,
1.14,1.28065,-2.10503,-0.333228,0.798501,0.206671,-0.935914,0.943815,0.333277,0.662089,0.195152,0,0,
1.17,1.27065,-2.08108,-0.325744,0.76872,0.249443,-0.99272,0.9636,0.339147,0.634055,0.184118,0,0,
1.2,1.26088,-2.05802,-0.31796,0.738539,0.259487,-1.00601,0.982549,0.344682,0.606217,0.172685,0,0,
1.23,1.25134,-2.03586,-0.309915,0.708049,0.268164,-1.01634,1.00067,0.34987,0.578643,0.160918,0,0,
1.26,1.24204,-2.01462,-0.301648,0.677334,0.275545,-1.02384,1.01796,0.354701,0.551396,0.148879,0,0,
1.29,1.23299,-1.9943,-0.293197,0.646472,0.281714,-1.02873,1.03445,0.359167,0.524528,0.136627,0,0,
1.32,1.2242,-1.97491,-0.284594,0.615531,0.286783,-1.03136,1.05013,0.363263,0.498078,0.124215,0,0,
1.35,1.21566,-1.95644,-0.275866,0.584563,0.290916,-1.0323,1.06503,0.366985,0.472068,0.111686,0,0,
1.38,1.20738,-1.9389,-0.267036,0.553591,0.29434,-1.03238,1.07915,0.370328,0.446502,0.0990722,0,0,
1.41,1.19937,-1.9223,-0.258116,0.522611,0.29733,-1.03269,1.0925,0.373291,0.421356,0.0863866,0,0,
1.44,1.19163,-1.90662,-0.249112,0.491582,0.300136,-1.0343,1.10511,0.375873,0.396582,0.0736262,0,0,
1.47,1.18416,-1.89187,-0.240027,0.460456,0.30284,-1.03753,1.11698,0.37807,0.372128,0.0607804,0,0,
1.5,1.17696,-1.87806,-0.23087,0.42922,0.305232,-1.04119,1.12812,0.379881,0.347963,0.0478546,0,0,
1.53,1.17003,-1.86518,-0.221662,0.397938,0.306913,-1.04275,1.13853,0.381304,0.324107,0.0348937,0,0,
1.56,1.16338,-1.85324,-0.212437,0.366748,0.307521,-1.03965,1.14824,0.382337,0.300628,0.0219848,0,0,
1.59,1.15701,-1.84224,-0.203231,0.335839,0.306839,-1.0303,1.15724,0.382983,0.277619,0.00924174,0,0,
1.62,1.15091,-1.83216,-0.194087,0.305411,0.304822,-1.01426,1.16555,0.383247,0.255181,-0.00321426,0,0,
1.65,1.14509,-1.823,-0.185039,0.275653,0.301605,-0.991961,1.1732,0.383138,0.233403,-0.0152679,0,0,
1.68,1.13954,-1.81473,-0.173873,0.242193,0.37219,-1.11534,1.18019,0.382667,0.208835,-0.0274945,0,0,
1.71,1.13432,-1.80747,-0.163081,0.210185,0.359739,-1.06692,1.18645,0.38183,0.185446,-0.039011,0,0,
1.74,1.12943,-1.80116,-0.138931,0.179074,0.804999,-1.03704,1.192,0.380649,0.157642,-0.0338475,0,0,
1.77,1.12526,-1.79579,-0.114643,0.147804,0.809595,-1.04232,1.19673,0.379625,0.129856,-0.0283414,0,0,
1.8,1.12182,-1.79135,-0.102168,0.113724,0.415844,-1.13601,1.20062,0.37877,0.105042,-0.0388431,0,0,
1.83,1.11876,-1.78794,-0.0819913,0.0902371,0.672545,-0.782886,1.20377,0.3776,0.0835797,-0.03217,0,0,
1.86,1.1163,-1.78524,-0.0659503,0.0715921,0.5347,-0.621499,1.20628,0.376632,0.0665733,-0.0267615,0,0,
1.89,1.11432,-1.78309,-0.0615038,0.0590798,0.148215,-0.417077,1.20827,0.375827,0.0575478,-0.0307415,0,0,
1.92,1.11247,-1.78132,-0.0575613,0.0489528,0.131418,-0.337566,1.21,0.374903,0.0501133,-0.033548,0,0,
1.95,1.11075,-1.77985,-0.0540424,0.0408346,0.117296,-0.270608,1.2115,0.373895,0.0440154,-0.0353645,0,0,
1.98,1.10912,-1.77862,-0.0463275,0.0323462,0.257164,-0.282947,1.21282,0.372833,0.0361418,-0.0323451,0,0,
2.01,1.10773,-1.77765,-0.0444242,0.0285818,0.0634435,-0.125481,1.21391,0.371862,0.0332019,-0.0328666,0,0,
2.04,1.1064,-1.77679,-0.0426833,0.0255178,0.0580318,-0.102131,1.2149,0.370875,0.030733,-0.0330604,0,0,
2.07,1.10512,-1.77603,-0.0410842,0.0230346,0.0533006,-0.082774,1.21582,0.369883,0.0286577,-0.0329916,0,0,
2.1,1.10389,-1.77534,-0.0396085,0.0210233,0.0491922,-0.0670452,1.21668,0.368892,0.0269055,-0.0327189,0,0,
2.13,1.1027,-1.77471,-0.0382388,0.019388,0.0456569,-0.0545104,1.21749,0.36791,0.0254143,-0.0322931,0,0,
2.16,1.10155,-1.77413,-0.0369597,0.0180477,0.0426342,-0.0446745,1.21825,0.366941,0.0241311,-0.0317559,0,0,
2.19,1.10044,-1.77358,-0.0357581,0.0169367,0.0400535,-0.0370356,1.21897,0.365988,0.0230125,-0.0311405,0,0,
2.22,1.09937,-1.77308,-0.0346229,0.0160026,0.0378417,-0.0311354,1.21966,0.365053,0.0220239,-0.0304724,0,0,
2.25,1.09833,-1.7726,-0.033545,0.0152051,0.0359308,-0.0265845,1.22032,0.364138,0.0211383,-0.0297707,0,0,
2.28,1.09733,-1.77214,-0.0325171,0.014513,0.0342617,-0.0230677,1.22096,0.363245,0.0203347,-0.0290498,0,0,
2.31,1.09635,-1.7717,-0.0315335,0.0139029,0.0327857,-0.0203376,1.22157,0.362373,0.0195971,-0.0283204,0,0,
2.34,1.09541,-1.77129,-0.0305896,0.0133568,0.0314637,-0.0182031,1.22216,0.361523,0.0189133,-0.0275901,0,0,
2.37,1.09449,-1.77089,-0.0296817,0.0128612,0.030265,-0.0165189,1.22272,0.360695,0.018274,-0.0268646,0,0,
2.4,1.0936,-1.7705,-0.0288067,0.012406,0.0291655,-0.0151748,1.22327,0.359889,0.0176719,-0.026148,0,0,
2.43,1.09273,-1.77013,-0.0279623,0.0119834,0.0281468,-0.0140878,1.2238,0.359104,0.0171015,-0.025443,0,0,
2.46,1.09189,-1.76977,-0.0271465,0.0115875,0.0271947,-0.0131957,1.22431,0.358341,0.0165586,-0.0247517,0,0,
2.49,1.09108,-1.76942,-0.0263575,0.0112139,0.0262982,-0.0124515,1.22481,0.357598,0.01604,-0.0240755,0,0,
2.52,1.09029,-1.76908,-0.025594,0.0108593,0.025449,-0.0118201,1.22529,0.356875,0.0155429,-0.0234151,0,0,
2.55,1.08952,-1.76876,-0.0248548,0.0105211,0.0246406,-0.0112751,1.22576,0.356173,0.0150654,-0.0227712,0,0,
2.58,1.08878,-1.76844,-0.0241388,0.0101972,0.0238679,-0.0107969,1.22621,0.355489,0.0146058,-0.0221439,0,0,
2.61,1.08805,-1.76814,-0.023445,0.00988607,0.0231269,-0.0103705,1.22665,0.354825,0.0141628,-0.0215333,0,0,
2.64,1.08735,-1.76784,-0.0227725,0.00958653,0.0224147,-0.00998477,1.22707,0.354179,0.0137353,-0.0209394,0,0,
2.67,1.08666,-1.76755,-0.0221207,0.00929759,0.0217287,-0.00963141,1.22748,0.35355,0.0133223,-0.0203619,0,0,
2.7,1.086,-1.76727,-0.0214887,0.00901846,0.0210668,-0.00930406,1.22788,0.352939,0.0129231,-0.0198006,0,0,
2.73,1.08536,-1.767,-0.0208758,0.00874853,0.0204276,-0.00899795,1.22827,0.352345,0.012537,-0.0192552,0,0,
2.76,1.08473,-1.76674,-0.0202816,0.00848724,0.0198096,-0.00870946,1.22865,0.351767,0.0121634,-0.0187255,0,0,
2.79,1.08412,-1.76649,-0.0197052,0.00823417,0.0192117,-0.00843585,1.22901,0.351205,0.0118017,-0.0182109,0,0,
2.82,1.08353,-1.76624,-0.0191462,0.00798892,0.0186328,-0.00817502,1.22936,0.350659,0.0114516,-0.0177113,0,0,
2.85,1.08296,-1.766,-0.0186041,0.00775116,0.0180723,-0.00792534,1.22971,0.350127,0.0111125,-0.0172261,0,0,
2.88,1.0824,-1.76577,-0.0180782,0.00752059,0.0175292,-0.00768558,1.23004,0.349611,0.010784,-0.016755,0,0,
2.91,1.08186,-1.76554,-0.0175681,0.00729695,0.0170029,-0.00745475,1.23036,0.349108,0.0104658,-0.0162976,0,0,
2.94,1.08133,-1.76532,-0.0170733,0.00707998,0.0164927,-0.00723208,1.23068,0.348619,0.0101574,-0.0158536,0,0,
2.97,1.08082,-1.76511,-0.0165934,0.00686947,0.0159981,-0.00701696,1.23098,0.348143,0.0098587,-0.0154226,0,0,
3,1.08032,-1.7649,-0.0161278,0.00666521,0.0155186,-0.00680887,1.23128,0.34768,0.0095692,-0.0150042,0,0,
3.03,1.07983,-1.7647,-0.0156762,0.00646699,0.0150537,-0.00660741,1.23157,0.34723,0.00928863,-0.0145981,0,0,
3.06,1.07936,-1.76451,-0.0152381,0.00627462,0.0146028,-0.00641224,1.23184,0.346792,0.00901672,-0.0142039,0,0,
3.09,1.07891,-1.76432,-0.0148132,0.00608793,0.0141655,-0.00622304,1.23211,0.346366,0.00875317,-0.0138213,0,0,
3.12,1.07846,-1.76414,-0.0144009,0.00590674,0.0137415,-0.00603957,1.23238,0.345951,0.00849773,-0.0134499,0,0,
3.15,1.07803,-1.76396,-0.014001,0.00573089,0.0133302,-0.0058616,1.23263,0.345548,0.00825013,-0.0130894,0,0,
3.18,1.07761,-1.76379,-0.0136131,0.00556023,0.0129312,-0.00568892,1.23288,0.345155,0.00801012,-0.0127396,0,0,
3.21,1.0772,-1.76362,-0.0132367,0.00539458,0.0125443,-0.00552135,1.23312,0.344773,0.00777747,-0.0124,0,0,
3.24,1.07681,-1.76346,-0.0128717,0.00523382,0.012169,-0.00535871,1.23335,0.3444,0.00755193,-0.0120705,0,0,
3.27,1.07642,-1.7633,-0.0125175,0.0050778,0.011805,-0.00520085,1.23358,0.344038,0.0073333,-0.0117507,0,0,
3.3,1.07604,-1.76315,-0.012174,0.00492637,0.0114519,-0.00504762,1.2338,0.343686,0.00712135,-0.0114402,0,0,
3.33,1.07568,-1.763,-0.0118407,0.0047794,0.0111094,-0.00489887,1.23401,0.343342,0.00691586,-0.011139,0,0,
3.36,1.07532,-1.76286,-0.0115174,0.00463677,0.0107771,-0.00475447,1.23422,0.343008,0.00671665,-0.0108466,0,0,
3.39,1.07498,-1.76272,-0.0112037,0.00449834,0.0104549,-0.00461428,1.23442,0.342683,0.00652352,-0.0105629,0,0,
3.42,1.07464,-1.76259,-0.0108995,0.004364,0.0101422,-0.00447819,1.23462,0.342366,0.00633627,-0.0102875,0,0,
3.45,1.07431,-1.76246,-0.0106043,0.00423361,0.00983901,-0.00434608,1.23481,0.342057,0.00615472,-0.0100203,0,0,
3.48,1.074,-1.76233,-0.0103179,0.00410708,0.00954486,-0.00421782,1.23499,0.341757,0.0059787,-0.00976097,0,0,
3.51,1.07369,-1.76221,-0.0100402,0.00398428,0.00925953,-0.00409332,1.23517,0.341464,0.00580804,-0.0095093,0,0,
3.54,1.07339,-1.76209,-0.00977067,0.0038651,0.00898274,-0.00397245,1.23535,0.341178,0.00564256,-0.00926506,0,0,
3.57,1.07309,-1.76197,-0.00950924,0.00374945,0.00871425,-0.00385511,1.23552,0.3409,0.00548212,-0.00902805,0,0,
3.6,1.07281,-1.76186,-0.00925563,0.00363722,0.00845379,-0.00374121,1.23568,0.34063,0.00532655,-0.00879805,0,0,
3.63,1.07253,-1.76175,-0.00900959,0.0035283,0.00820114,-0.00363064,1.23584,0.340366,0.0051757,-0.00857485,0,0,
3.66,1.07226,-1.76164,-0.00877091,0.0034226,0.00795605,-0.00352331,1.23599,0.340108,0.00502942,-0.00835825,0,0,
3.69,1.072,-1.76154,-0.00853936,0.00332002,0.0077183,-0.00341912,1.23615,0.339858,0.00488759,-0.00814807,0,0,
3.72,1.07174,-1.76144,-0.00831473,0.00322048,0.00748767,-0.00331798,1.23629,0.339613,0.00475005,-0.0079441,0,0,
3.75,1.07149,-1.76134,-0.00809681,0.00312389,0.00726394,-0.00321981,1.23643,0.339375,0.00461669,-0.00774618,0,0,
3.78,1.07125,-1.76125,-0.00788541,0.00303015,0.00704691,-0.00312452,1.23657,0.339142,0.00448736,-0.00755411,0,0,
3.81,1.07101,-1.76116,-0.00768032,0.00293919,0.00683637,-0.00303202,1.23671,0.338916,0.00436195,-0.00736774,0,0,
3.84,1.07078,-1.76107,-0.00748135,0.00285093,0.00663213,-0.00294225,1.23684,0.338695,0.00424033,-0.00718688,0,0,
3.87,1.07056,-1.76099,-0.00728833,0.00276527,0.006434,-0.0028551,1.23697,0.338479,0.0041224,-0.00701138,0,0,
3.9,1.07034,-1.7609,-0.00710108,0.00268216,0.0062418,-0.00277052,1.23709,0.338269,0.00400803,-0.00684109,0,0,
3.93,1.07012,-1.76082,-0.00691942,0.0026015,0.00605535,-0.00268843,1.23721,0.338063,0.00389711,-0.00667584,0,0,
3.96,1.06992,-1.76074,-0.00674318,0.00252324,0.00587448,-0.00260875,1.23733,0.337863,0.00378955,-0.00651549,0,0,
3.99,1.06971,-1.76067,-0.00657221,0.0024473,0.00569901,-0.00253142,1.23744,0.337668,0.00368524,-0.0063599,0,0,
4.02,1.06952,-1.7606,-0.00640635,0.00237361,0.0055288,-0.00245636,1.23755,0.337477,0.00358408,-0.00620891,0,0,
4.05,1.06933,-1.76052,-0.00624544,0.0023021,0.00536367,-0.00238351,1.23766,0.337291,0.00348598,-0.00606241,0,0,
4.08,1.06914,-1.76045,-0.00608933,0.00223272,0.00520349,-0.00231281,1.23776,0.337109,0.00339083,-0.00592025,0,0,
4.11,1.06896,-1.76039,-0.00593789,0.00216539,0.00504809,-0.00224419,1.23786,0.336931,0.00329856,-0.00578231,0,0,
4.14,1.06878,-1.76032,-0.00579097,0.00210007,0.00489734,-0.0021776,1.23796,0.336758,0.00320907,-0.00564847,0,0,
4.17,1.0686,-1.76026,-0.00564844,0.00203668,0.00475109,-0.00211297,1.23806,0.336588,0.00312228,-0.00551859,0,0,
4.2,1.06843,-1.7602,-0.00551016,0.00197517,0.00460922,-0.00205024,1.23815,0.336423,0.0030381,-0.00539257,0,0,
4.23,1.06827,-1.76014,-0.00537601,0.00191549,0.00447158,-0.00198937,1.23824,0.336261,0.00295646,-0.00527029,0,0,
4.26,1.06811,-1.76008,-0.00524587,0.00185758,0.00433806,-0.00193029,1.23833,0.336103,0.00287728,-0.00515164,0,0,
4.29,1.06795,-1.76003,-0.00511962,0.00180139,0.00420854,-0.00187296,1.23842,0.335948,0.00280049,-0.00503652,0,0,
4.32,1.0678,-1.75997,-0.00499713,0.00174687,0.00408288,-0.00181733,1.2385,0.335797,0.00272601,-0.00492481,0,0,
4.35,1.06765,-1.75992,-0.0048783,0.00169397,0.00396098,-0.00176333,1.23859,0.335649,0.00265377,-0.00481642,0,0,
4.38,1.0675,-1.75987,-0.00476302,0.00164264,0.00384272,-0.00171094,1.23866,0.335505,0.0025837,-0.00471125,0,0,
4.41,1.06736,-1.75982,-0.00465118,0.00159284,0.00372799,-0.00166009,1.23874,0.335363,0.00251574,-0.0046092,0,0,
4.44,1.06722,-1.75977,-0.00454268,0.00154452,0.00361669,-0.00161074,1.23882,0.335225,0.00244983,-0.00451018,0,0,
4.47,1.06708,-1.75973,-0.00443742,0.00149763,0.00350872,-0.00156286,1.23889,0.33509,0.0023859,-0.00441411,0,0,
4.5,1.06695,-1.75968,-0.0043353,0.00145214,0.00340397,-0.00151639,1.23896,0.334957,0.00232389,-0.00432089,0,0,
4.53,1.06682,-1.75964,-0.00423623,0.001408,0.00330235,-0.0014713,1.23903,0.334828,0.00226375,-0.00423044,0,0,
4.56,1.06669,-1.7596,-0.00414011,0.00136518,0.00320377,-0.00142754,1.2391,0.334701,0.00220542,-0.00414268,0,0,
4.59,1.06657,-1.75955,-0.00404687,0.00132362,0.00310813,-0.00138508,1.23917,0.334577,0.00214883,-0.00405753,0,0,
4.62,1.06645,-1.75951,-0.00395641,0.00128331,0.00301535,-0.00134387,1.23923,0.334455,0.00209395,-0.00397491,0,0,
4.65,1.06633,-1.75948,-0.00386865,0.00124419,0.00292534,-0.00130389,1.23929,0.334336,0.00204072,-0.00389474,0,0,
4.68,1.06621,-1.75944,-0.00378351,0.00120624,0.00283802,-0.00126509,1.23936,0.334219,0.00198908,-0.00381696,0,0,
4.71,1.0661,-1.7594,-0.00370091,0.00116941,0.00275331,-0.00122744,1.23941,0.334104,0.001939,-0.00374149,0,0,
4.74,1.06599,-1.75937,-0.00362078,0.00113369,0.00267113,-0.0011909,1.23947,0.333992,0.00189042,-0.00366826,0,0,
4.77,1.06588,-1.75933,-0.00354303,0.00109902,0.0025914,-0.00115545,1.23953,0.333882,0.0018433,-0.00359721,0,0,
4.8,1.06577,-1.7593,-0.00346761,0.00106539,0.00251405,-0.00112105,1.23958,0.333774,0.00179759,-0.00352828,0,0,
4.83,1.06567,-1.75927,-0.00339444,0.00103276,0.00243901,-0.00108767,1.23964,0.333668,0.00175326,-0.00346139,0,0,
4.86,1.06557,-1.75924,-0.00332346,0.0010011,0.00236621,-0.00105529,1.23969,0.333564,0.00171025,-0.00339649,0,0,
4.89,1.06547,-1.75921,-0.00325459,0.000970387,0.00229559,-0.00102386,1.23974,0.333462,0.00166854,-0.00333353,0,0,
4.92,1.06537,-1.75918,-0.00318778,0.000940587,0.00222708,-0.000993362,1.23979,0.333362,0.00162807,-0.00327243,0,0,
4.95,1.06527,-1.75915,-0.00312296,0.000911673,0.00216061,-0.000963772,1.23984,0.333264,0.00158882,-0.00321316,0,0,
4.98,1.06518,-1.75912,-0.00306007,0.000883622,0.00209612,-0.000935059,1.23989,0.333168,0.00155075,-0.00315564,0,0,
5.01,1.06509,-1.7591,-0.00299907,0.000856406,0.00203357,-0.0009072,1.23994,0.333073,0.00151382,-0.00309984,0,0,
5.04,1.065,-1.75907,-0.00293988,0.000830001,0.00197288,-0.000880168,1.23998,0.33298,0.001478,-0.0030457,0,0,
5.07,1.06491,-1.75905,-0.00288246,0.000804382,0.001914,-0.000853938,1.24003,0.332889,0.00144324,-0.00299317,0,0,
5.1,1.06482,-1.75902,-0.00282675,0.000779528,0.00185688,-0.000828488,1.24007,0.332799,0.00140954,-0.0029422,0,0,
5.13,1.06474,-1.759,-0.00277271,0.000755414,0.00180146,-0.000803793,1.24011,0.332711,0.00137684,-0.00289275,0,0,
5.16,1.06465,-1.75898,-0.00272028,0.000732019,0.0017477,-0.000779833,1.24015,0.332624,0.00134512,-0.00284477,0,0,
5.19,1.06457,-1.75895,-0.00266941,0.000709321,0.00169555,-0.000756585,1.24019,0.332539,0.00131435,-0.00279821,0,0,
5.22,1.06449,-1.75893,-0.00262006,0.000687301,0.00164495,-0.000734027,1.24023,0.332455,0.0012845,-0.00275304,0,0,
5.25,1.06441,-1.75891,-0.00257219,0.000665936,0.00159586,-0.000712141,1.24027,0.332372,0.00125555,-0.00270922,0,0,
5.28,1.06434,-1.75889,-0.00252574,0.000645209,0.00154824,-0.000690905,1.24031,0.332291,0.00122746,-0.0026667,0,0,
5.31,1.06426,-1.75887,-0.00248068,0.0006251,0.00150204,-0.0006703,1.24035,0.332211,0.00120022,-0.00262545,0,0,
5.34,1.06419,-1.75885,-0.00243696,0.000605591,0.00145723,-0.000650309,1.24038,0.332132,0.00117379,-0.00258542,0,0,
5.37,1.06411,-1.75884,-0.00239455,0.000586664,0.00141375,-0.000630912,1.24042,0.332054,0.00114815,-0.00254659,0,0,
5.4,1.06404,-1.75882,-0.0023534,0.000568301,0.00137156,-0.000612092,1.24045,0.331978,0.00112328,-0.00250891,0,0,
5.43,1.06397,-1.7588,-0.00231348,0.000550486,0.00133064,-0.000593833,1.24048,0.331903,0.00109916,-0.00247235,0,0,
5.46,1.0639,-1.75878,-0.00227476,0.000533202,0.00129094,-0.000576116,1.24052,0.331829,0.00107575,-0.00243688,0,0,
5.49,1.06383,-1.75877,-0.00223718,0.000516435,0.00125243,-0.000558928,1.24055,0.331755,0.00105305,-0.00240247,0,0,
5.52,1.06377,-1.75875,-0.00220073,0.000500167,0.00121507,-0.000542251,1.24058,0.331683,0.00103102,-0.00236908,0,0,
